# Pulseq sequence file
# Created by PyPulseq

# Created for Pulseq-CEST
# https://pulseq-cest.github.io/
# Created by: Asbjorn Bjorkkjar
# Created at: 31-May-2025 11:32:29

[VERSION]
major 1
minor 3
revision 1post1

[DEFINITIONS]
B0 7 
B1pa 3 
B1rms 3 
DCsat 0.99980004 
FREQ 300.325361 
M0_offset -100 
Trec 10 
Trec_M0 10 
Tsat 3.00059 
n_pulses 60 
num_meas 36 
offsets_ppm -100 -15 -5 -4 -3.5 -3.25 -3 -2.75 -2.5 -2 -1.5 -1 -0.75 -0.5 -0.25 0 0.25 0.5 0.75 1 1.5 2 2.5 2.75 2.875 3 3.125 3.25 3.375 3.5 3.65 3.8 4 4.5 5 15 
seq_id_string seq_file_creator_redo_E26 
spoiling 1 
td 1e-05 
tp 0.05 

# Format of blocks:
#  #  D RF  GX  GY  GZ ADC EXT
[BLOCKS]
   1  1  0   0   0   0  0  0
   2  0  1   0   0   0  0  0
   3  2  0   0   0   0  0  0
   4  0  2   0   0   0  0  0
   5  2  0   0   0   0  0  0
   6  0  3   0   0   0  0  0
   7  2  0   0   0   0  0  0
   8  0  4   0   0   0  0  0
   9  2  0   0   0   0  0  0
  10  0  5   0   0   0  0  0
  11  2  0   0   0   0  0  0
  12  0  6   0   0   0  0  0
  13  2  0   0   0   0  0  0
  14  0  7   0   0   0  0  0
  15  2  0   0   0   0  0  0
  16  0  8   0   0   0  0  0
  17  2  0   0   0   0  0  0
  18  0  9   0   0   0  0  0
  19  2  0   0   0   0  0  0
  20  0 10   0   0   0  0  0
  21  2  0   0   0   0  0  0
  22  0 11   0   0   0  0  0
  23  2  0   0   0   0  0  0
  24  0 12   0   0   0  0  0
  25  2  0   0   0   0  0  0
  26  0 13   0   0   0  0  0
  27  2  0   0   0   0  0  0
  28  0 14   0   0   0  0  0
  29  2  0   0   0   0  0  0
  30  0 15   0   0   0  0  0
  31  2  0   0   0   0  0  0
  32  0 16   0   0   0  0  0
  33  2  0   0   0   0  0  0
  34  0 17   0   0   0  0  0
  35  2  0   0   0   0  0  0
  36  0 18   0   0   0  0  0
  37  2  0   0   0   0  0  0
  38  0 19   0   0   0  0  0
  39  2  0   0   0   0  0  0
  40  0 20   0   0   0  0  0
  41  2  0   0   0   0  0  0
  42  0 21   0   0   0  0  0
  43  2  0   0   0   0  0  0
  44  0 22   0   0   0  0  0
  45  2  0   0   0   0  0  0
  46  0 23   0   0   0  0  0
  47  2  0   0   0   0  0  0
  48  0 24   0   0   0  0  0
  49  2  0   0   0   0  0  0
  50  0 25   0   0   0  0  0
  51  2  0   0   0   0  0  0
  52  0 26   0   0   0  0  0
  53  2  0   0   0   0  0  0
  54  0 27   0   0   0  0  0
  55  2  0   0   0   0  0  0
  56  0 28   0   0   0  0  0
  57  2  0   0   0   0  0  0
  58  0 29   0   0   0  0  0
  59  2  0   0   0   0  0  0
  60  0 30   0   0   0  0  0
  61  2  0   0   0   0  0  0
  62  0 31   0   0   0  0  0
  63  2  0   0   0   0  0  0
  64  0 32   0   0   0  0  0
  65  2  0   0   0   0  0  0
  66  0 33   0   0   0  0  0
  67  2  0   0   0   0  0  0
  68  0 34   0   0   0  0  0
  69  2  0   0   0   0  0  0
  70  0 35   0   0   0  0  0
  71  2  0   0   0   0  0  0
  72  0 36   0   0   0  0  0
  73  2  0   0   0   0  0  0
  74  0 37   0   0   0  0  0
  75  2  0   0   0   0  0  0
  76  0 38   0   0   0  0  0
  77  2  0   0   0   0  0  0
  78  0 39   0   0   0  0  0
  79  2  0   0   0   0  0  0
  80  0 40   0   0   0  0  0
  81  2  0   0   0   0  0  0
  82  0 41   0   0   0  0  0
  83  2  0   0   0   0  0  0
  84  0 42   0   0   0  0  0
  85  2  0   0   0   0  0  0
  86  0 43   0   0   0  0  0
  87  2  0   0   0   0  0  0
  88  0 44   0   0   0  0  0
  89  2  0   0   0   0  0  0
  90  0 45   0   0   0  0  0
  91  2  0   0   0   0  0  0
  92  0 46   0   0   0  0  0
  93  2  0   0   0   0  0  0
  94  0 47   0   0   0  0  0
  95  2  0   0   0   0  0  0
  96  0 48   0   0   0  0  0
  97  2  0   0   0   0  0  0
  98  0 49   0   0   0  0  0
  99  2  0   0   0   0  0  0
 100  0 50   0   0   0  0  0
 101  2  0   0   0   0  0  0
 102  0 51   0   0   0  0  0
 103  2  0   0   0   0  0  0
 104  0 52   0   0   0  0  0
 105  2  0   0   0   0  0  0
 106  0 53   0   0   0  0  0
 107  2  0   0   0   0  0  0
 108  0 54   0   0   0  0  0
 109  2  0   0   0   0  0  0
 110  0 55   0   0   0  0  0
 111  2  0   0   0   0  0  0
 112  0 56   0   0   0  0  0
 113  2  0   0   0   0  0  0
 114  0 57   0   0   0  0  0
 115  2  0   0   0   0  0  0
 116  0 58   0   0   0  0  0
 117  2  0   0   0   0  0  0
 118  0 59   0   0   0  0  0
 119  2  0   0   0   0  0  0
 120  0 60   0   0   0  0  0
 121  0  0   1   1   1  0  0
 122  0  0   0   0   0  1  0
 123  1  0   0   0   0  0  0
 124  0 61   0   0   0  0  0
 125  2  0   0   0   0  0  0
 126  0 62   0   0   0  0  0
 127  2  0   0   0   0  0  0
 128  0 63   0   0   0  0  0
 129  2  0   0   0   0  0  0
 130  0 64   0   0   0  0  0
 131  2  0   0   0   0  0  0
 132  0 65   0   0   0  0  0
 133  2  0   0   0   0  0  0
 134  0 66   0   0   0  0  0
 135  2  0   0   0   0  0  0
 136  0 67   0   0   0  0  0
 137  2  0   0   0   0  0  0
 138  0 68   0   0   0  0  0
 139  2  0   0   0   0  0  0
 140  0 69   0   0   0  0  0
 141  2  0   0   0   0  0  0
 142  0 70   0   0   0  0  0
 143  2  0   0   0   0  0  0
 144  0 71   0   0   0  0  0
 145  2  0   0   0   0  0  0
 146  0 72   0   0   0  0  0
 147  2  0   0   0   0  0  0
 148  0 73   0   0   0  0  0
 149  2  0   0   0   0  0  0
 150  0 74   0   0   0  0  0
 151  2  0   0   0   0  0  0
 152  0 75   0   0   0  0  0
 153  2  0   0   0   0  0  0
 154  0 76   0   0   0  0  0
 155  2  0   0   0   0  0  0
 156  0 77   0   0   0  0  0
 157  2  0   0   0   0  0  0
 158  0 78   0   0   0  0  0
 159  2  0   0   0   0  0  0
 160  0 79   0   0   0  0  0
 161  2  0   0   0   0  0  0
 162  0 80   0   0   0  0  0
 163  2  0   0   0   0  0  0
 164  0 81   0   0   0  0  0
 165  2  0   0   0   0  0  0
 166  0 82   0   0   0  0  0
 167  2  0   0   0   0  0  0
 168  0 83   0   0   0  0  0
 169  2  0   0   0   0  0  0
 170  0 84   0   0   0  0  0
 171  2  0   0   0   0  0  0
 172  0 85   0   0   0  0  0
 173  2  0   0   0   0  0  0
 174  0 86   0   0   0  0  0
 175  2  0   0   0   0  0  0
 176  0 87   0   0   0  0  0
 177  2  0   0   0   0  0  0
 178  0 88   0   0   0  0  0
 179  2  0   0   0   0  0  0
 180  0 89   0   0   0  0  0
 181  2  0   0   0   0  0  0
 182  0 90   0   0   0  0  0
 183  2  0   0   0   0  0  0
 184  0 91   0   0   0  0  0
 185  2  0   0   0   0  0  0
 186  0 92   0   0   0  0  0
 187  2  0   0   0   0  0  0
 188  0 93   0   0   0  0  0
 189  2  0   0   0   0  0  0
 190  0 94   0   0   0  0  0
 191  2  0   0   0   0  0  0
 192  0 95   0   0   0  0  0
 193  2  0   0   0   0  0  0
 194  0 96   0   0   0  0  0
 195  2  0   0   0   0  0  0
 196  0 97   0   0   0  0  0
 197  2  0   0   0   0  0  0
 198  0 98   0   0   0  0  0
 199  2  0   0   0   0  0  0
 200  0 99   0   0   0  0  0
 201  2  0   0   0   0  0  0
 202  0 100   0   0   0  0  0
 203  2  0   0   0   0  0  0
 204  0 101   0   0   0  0  0
 205  2  0   0   0   0  0  0
 206  0 102   0   0   0  0  0
 207  2  0   0   0   0  0  0
 208  0 103   0   0   0  0  0
 209  2  0   0   0   0  0  0
 210  0 104   0   0   0  0  0
 211  2  0   0   0   0  0  0
 212  0 105   0   0   0  0  0
 213  2  0   0   0   0  0  0
 214  0 106   0   0   0  0  0
 215  2  0   0   0   0  0  0
 216  0 107   0   0   0  0  0
 217  2  0   0   0   0  0  0
 218  0 108   0   0   0  0  0
 219  2  0   0   0   0  0  0
 220  0 109   0   0   0  0  0
 221  2  0   0   0   0  0  0
 222  0 110   0   0   0  0  0
 223  2  0   0   0   0  0  0
 224  0 111   0   0   0  0  0
 225  2  0   0   0   0  0  0
 226  0 112   0   0   0  0  0
 227  2  0   0   0   0  0  0
 228  0 113   0   0   0  0  0
 229  2  0   0   0   0  0  0
 230  0 114   0   0   0  0  0
 231  2  0   0   0   0  0  0
 232  0 115   0   0   0  0  0
 233  2  0   0   0   0  0  0
 234  0 116   0   0   0  0  0
 235  2  0   0   0   0  0  0
 236  0 117   0   0   0  0  0
 237  2  0   0   0   0  0  0
 238  0 118   0   0   0  0  0
 239  2  0   0   0   0  0  0
 240  0 119   0   0   0  0  0
 241  2  0   0   0   0  0  0
 242  0 120   0   0   0  0  0
 243  0  0   1   1   1  0  0
 244  0  0   0   0   0  1  0
 245  1  0   0   0   0  0  0
 246  0 121   0   0   0  0  0
 247  2  0   0   0   0  0  0
 248  0 122   0   0   0  0  0
 249  2  0   0   0   0  0  0
 250  0 123   0   0   0  0  0
 251  2  0   0   0   0  0  0
 252  0 124   0   0   0  0  0
 253  2  0   0   0   0  0  0
 254  0 125   0   0   0  0  0
 255  2  0   0   0   0  0  0
 256  0 126   0   0   0  0  0
 257  2  0   0   0   0  0  0
 258  0 127   0   0   0  0  0
 259  2  0   0   0   0  0  0
 260  0 128   0   0   0  0  0
 261  2  0   0   0   0  0  0
 262  0 129   0   0   0  0  0
 263  2  0   0   0   0  0  0
 264  0 130   0   0   0  0  0
 265  2  0   0   0   0  0  0
 266  0 131   0   0   0  0  0
 267  2  0   0   0   0  0  0
 268  0 132   0   0   0  0  0
 269  2  0   0   0   0  0  0
 270  0 133   0   0   0  0  0
 271  2  0   0   0   0  0  0
 272  0 134   0   0   0  0  0
 273  2  0   0   0   0  0  0
 274  0 135   0   0   0  0  0
 275  2  0   0   0   0  0  0
 276  0 136   0   0   0  0  0
 277  2  0   0   0   0  0  0
 278  0 137   0   0   0  0  0
 279  2  0   0   0   0  0  0
 280  0 138   0   0   0  0  0
 281  2  0   0   0   0  0  0
 282  0 139   0   0   0  0  0
 283  2  0   0   0   0  0  0
 284  0 140   0   0   0  0  0
 285  2  0   0   0   0  0  0
 286  0 141   0   0   0  0  0
 287  2  0   0   0   0  0  0
 288  0 142   0   0   0  0  0
 289  2  0   0   0   0  0  0
 290  0 143   0   0   0  0  0
 291  2  0   0   0   0  0  0
 292  0 144   0   0   0  0  0
 293  2  0   0   0   0  0  0
 294  0 145   0   0   0  0  0
 295  2  0   0   0   0  0  0
 296  0 146   0   0   0  0  0
 297  2  0   0   0   0  0  0
 298  0 147   0   0   0  0  0
 299  2  0   0   0   0  0  0
 300  0 148   0   0   0  0  0
 301  2  0   0   0   0  0  0
 302  0 149   0   0   0  0  0
 303  2  0   0   0   0  0  0
 304  0 150   0   0   0  0  0
 305  2  0   0   0   0  0  0
 306  0 151   0   0   0  0  0
 307  2  0   0   0   0  0  0
 308  0 152   0   0   0  0  0
 309  2  0   0   0   0  0  0
 310  0 153   0   0   0  0  0
 311  2  0   0   0   0  0  0
 312  0 154   0   0   0  0  0
 313  2  0   0   0   0  0  0
 314  0 155   0   0   0  0  0
 315  2  0   0   0   0  0  0
 316  0 156   0   0   0  0  0
 317  2  0   0   0   0  0  0
 318  0 157   0   0   0  0  0
 319  2  0   0   0   0  0  0
 320  0 158   0   0   0  0  0
[RF]
1      128.711 1 2 100 -30032.5 0
2      128.711 1 2 100 -30032.5 2.34485
3      128.711 1 2 100 -30032.5 4.68971
4      128.711 1 2 100 -30032.5 0.751375
5      128.711 1 2 100 -30032.5 3.09623
6      128.711 1 2 100 -30032.5 5.44108
7      128.711 1 2 100 -30032.5 1.50275
8      128.711 1 2 100 -30032.5 3.8476
9      128.711 1 2 100 -30032.5 6.19246
10      128.711 1 2 100 -30032.5 2.25412
11      128.711 1 2 100 -30032.5 4.59898
12      128.711 1 2 100 -30032.5 0.660646
13      128.711 1 2 100 -30032.5 3.0055
14      128.711 1 2 100 -30032.5 5.35035
15      128.711 1 2 100 -30032.5 1.41202
16      128.711 1 2 100 -30032.5 3.75687
17      128.711 1 2 100 -30032.5 6.10173
18      128.711 1 2 100 -30032.5 2.16339
19      128.711 1 2 100 -30032.5 4.50825
20      128.711 1 2 100 -30032.5 0.569916
21      128.711 1 2 100 -30032.5 2.91477
22      128.711 1 2 100 -30032.5 5.25962
23      128.711 1 2 100 -30032.5 1.32129
24      128.711 1 2 100 -30032.5 3.66614
25      128.711 1 2 100 -30032.5 6.011
26      128.711 1 2 100 -30032.5 2.07267
27      128.711 1 2 100 -30032.5 4.41752
28      128.711 1 2 100 -30032.5 0.479187
29      128.711 1 2 100 -30032.5 2.82404
30      128.711 1 2 100 -30032.5 5.16889
31      128.711 1 2 100 -30032.5 1.23056
32      128.711 1 2 100 -30032.5 3.57542
33      128.711 1 2 100 -30032.5 5.92027
34      128.711 1 2 100 -30032.5 1.98194
35      128.711 1 2 100 -30032.5 4.32679
36      128.711 1 2 100 -30032.5 0.388458
37      128.711 1 2 100 -30032.5 2.73331
38      128.711 1 2 100 -30032.5 5.07816
39      128.711 1 2 100 -30032.5 1.13983
40      128.711 1 2 100 -30032.5 3.48469
41      128.711 1 2 100 -30032.5 5.82954
42      128.711 1 2 100 -30032.5 1.89121
43      128.711 1 2 100 -30032.5 4.23606
44      128.711 1 2 100 -30032.5 0.297729
45      128.711 1 2 100 -30032.5 2.64258
46      128.711 1 2 100 -30032.5 4.98744
47      128.711 1 2 100 -30032.5 1.0491
48      128.711 1 2 100 -30032.5 3.39396
49      128.711 1 2 100 -30032.5 5.73881
50      128.711 1 2 100 -30032.5 1.80048
51      128.711 1 2 100 -30032.5 4.14533
52      128.711 1 2 100 -30032.5 0.207
53      128.711 1 2 100 -30032.5 2.55185
54      128.711 1 2 100 -30032.5 4.89671
55      128.711 1 2 100 -30032.5 0.958374
56      128.711 1 2 100 -30032.5 3.30323
57      128.711 1 2 100 -30032.5 5.64808
58      128.711 1 2 100 -30032.5 1.70975
59      128.711 1 2 100 -30032.5 4.0546
60      128.711 1 2 100 -30032.5 0.11627
61      128.711 1 2 100 -4504.88 0
62      128.711 1 2 100 -4504.88 4.74996
63      128.711 1 2 100 -4504.88 3.21673
64      128.711 1 2 100 -4504.88 1.6835
65      128.711 1 2 100 -4504.88 0.150275
66      128.711 1 2 100 -4504.88 4.90023
67      128.711 1 2 100 -4504.88 3.36701
68      128.711 1 2 100 -4504.88 1.83378
69      128.711 1 2 100 -4504.88 0.30055
70      128.711 1 2 100 -4504.88 5.05051
71      128.711 1 2 100 -4504.88 3.51728
72      128.711 1 2 100 -4504.88 1.98405
73      128.711 1 2 100 -4504.88 0.450825
74      128.711 1 2 100 -4504.88 5.20078
75      128.711 1 2 100 -4504.88 3.66755
76      128.711 1 2 100 -4504.88 2.13433
77      128.711 1 2 100 -4504.88 0.6011
78      128.711 1 2 100 -4504.88 5.35106
79      128.711 1 2 100 -4504.88 3.81783
80      128.711 1 2 100 -4504.88 2.2846
81      128.711 1 2 100 -4504.88 0.751375
82      128.711 1 2 100 -4504.88 5.50133
83      128.711 1 2 100 -4504.88 3.9681
84      128.711 1 2 100 -4504.88 2.43488
85      128.711 1 2 100 -4504.88 0.90165
86      128.711 1 2 100 -4504.88 5.65161
87      128.711 1 2 100 -4504.88 4.11838
88      128.711 1 2 100 -4504.88 2.58515
89      128.711 1 2 100 -4504.88 1.05192
90      128.711 1 2 100 -4504.88 5.80188
91      128.711 1 2 100 -4504.88 4.26865
92      128.711 1 2 100 -4504.88 2.73543
93      128.711 1 2 100 -4504.88 1.2022
94      128.711 1 2 100 -4504.88 5.95216
95      128.711 1 2 100 -4504.88 4.41893
96      128.711 1 2 100 -4504.88 2.8857
97      128.711 1 2 100 -4504.88 1.35247
98      128.711 1 2 100 -4504.88 6.10243
99      128.711 1 2 100 -4504.88 4.5692
100      128.711 1 2 100 -4504.88 3.03598
101      128.711 1 2 100 -4504.88 1.50275
102      128.711 1 2 100 -4504.88 6.25271
103      128.711 1 2 100 -4504.88 4.71948
104      128.711 1 2 100 -4504.88 3.18625
105      128.711 1 2 100 -4504.88 1.65302
106      128.711 1 2 100 -4504.88 0.119797
107      128.711 1 2 100 -4504.88 4.86975
108      128.711 1 2 100 -4504.88 3.33653
109      128.711 1 2 100 -4504.88 1.8033
110      128.711 1 2 100 -4504.88 0.270072
111      128.711 1 2 100 -4504.88 5.02003
112      128.711 1 2 100 -4504.88 3.4868
113      128.711 1 2 100 -4504.88 1.95357
114      128.711 1 2 100 -4504.88 0.420347
115      128.711 1 2 100 -4504.88 5.1703
116      128.711 1 2 100 -4504.88 3.63708
117      128.711 1 2 100 -4504.88 2.10385
118      128.711 1 2 100 -4504.88 0.570622
119      128.711 1 2 100 -4504.88 5.32058
120      128.711 1 2 100 -4504.88 3.78735
121      128.711 1 2 100 -1501.63 0
122      128.711 1 2 100 -1501.63 5.77211
123      128.711 1 2 100 -1501.63 5.26103
124      128.711 1 2 100 -1501.63 4.74996
125      128.711 1 2 100 -1501.63 4.23888
126      128.711 1 2 100 -1501.63 3.72781
127      128.711 1 2 100 -1501.63 3.21673
128      128.711 1 2 100 -1501.63 2.70565
129      128.711 1 2 100 -1501.63 2.19458
130      128.711 1 2 100 -1501.63 1.6835
131      128.711 1 2 100 -1501.63 1.17243
132      128.711 1 2 100 -1501.63 0.661351
133      128.711 1 2 100 -1501.63 0.150275
134      128.711 1 2 100 -1501.63 5.92238
135      128.711 1 2 100 -1501.63 5.41131
136      128.711 1 2 100 -1501.63 4.90023
137      128.711 1 2 100 -1501.63 4.38916
138      128.711 1 2 100 -1501.63 3.87808
139      128.711 1 2 100 -1501.63 3.36701
140      128.711 1 2 100 -1501.63 2.85593
141      128.711 1 2 100 -1501.63 2.34485
142      128.711 1 2 100 -1501.63 1.83378
143      128.711 1 2 100 -1501.63 1.3227
144      128.711 1 2 100 -1501.63 0.811626
145      128.711 1 2 100 -1501.63 0.30055
146      128.711 1 2 100 -1501.63 6.07266
147      128.711 1 2 100 -1501.63 5.56158
148      128.711 1 2 100 -1501.63 5.05051
149      128.711 1 2 100 -1501.63 4.53943
150      128.711 1 2 100 -1501.63 4.02836
151      128.711 1 2 100 -1501.63 3.51728
152      128.711 1 2 100 -1501.63 3.0062
153      128.711 1 2 100 -1501.63 2.49513
154      128.711 1 2 100 -1501.63 1.98405
155      128.711 1 2 100 -1501.63 1.47298
156      128.711 1 2 100 -1501.63 0.961901
157      128.711 1 2 100 -1501.63 0.450825
158      128.711 1 2 100 -1501.63 6.22293
159      128.711 1 2 100 -1501.63 5.71186
160      128.711 1 2 100 -1501.63 5.20078
161      128.711 1 2 100 -1501.63 4.68971
162      128.711 1 2 100 -1501.63 4.17863
163      128.711 1 2 100 -1501.63 3.66755
164      128.711 1 2 100 -1501.63 3.15648
165      128.711 1 2 100 -1501.63 2.6454
166      128.711 1 2 100 -1501.63 2.13433
167      128.711 1 2 100 -1501.63 1.62325
168      128.711 1 2 100 -1501.63 1.11218
169      128.711 1 2 100 -1501.63 0.6011
170      128.711 1 2 100 -1501.63 0.0900239
171      128.711 1 2 100 -1501.63 5.86213
172      128.711 1 2 100 -1501.63 5.35106
173      128.711 1 2 100 -1501.63 4.83998
174      128.711 1 2 100 -1501.63 4.32891
175      128.711 1 2 100 -1501.63 3.81783
176      128.711 1 2 100 -1501.63 3.30675
177      128.711 1 2 100 -1501.63 2.79568
178      128.711 1 2 100 -1501.63 2.2846
179      128.711 1 2 100 -1501.63 1.77353
180      128.711 1 2 100 -1501.63 1.26245
181      128.711 1 2 100 -1201.3 0
182      128.711 1 2 100 -1201.3 5.87432
183      128.711 1 2 100 -1201.3 5.46546
184      128.711 1 2 100 -1201.3 5.0566
185      128.711 1 2 100 -1201.3 4.64774
186      128.711 1 2 100 -1201.3 4.23888
187      128.711 1 2 100 -1201.3 3.83002
188      128.711 1 2 100 -1201.3 3.42116
189      128.711 1 2 100 -1201.3 3.0123
190      128.711 1 2 100 -1201.3 2.60344
191      128.711 1 2 100 -1201.3 2.19458
192      128.711 1 2 100 -1201.3 1.78572
193      128.711 1 2 100 -1201.3 1.37686
194      128.711 1 2 100 -1201.3 0.967996
195      128.711 1 2 100 -1201.3 0.559136
196      128.711 1 2 100 -1201.3 0.150275
197      128.711 1 2 100 -1201.3 6.0246
198      128.711 1 2 100 -1201.3 5.61574
199      128.711 1 2 100 -1201.3 5.20688
200      128.711 1 2 100 -1201.3 4.79802
201      128.711 1 2 100 -1201.3 4.38916
202      128.711 1 2 100 -1201.3 3.9803
203      128.711 1 2 100 -1201.3 3.57144
204      128.711 1 2 100 -1201.3 3.16257
205      128.711 1 2 100 -1201.3 2.75371
206      128.711 1 2 100 -1201.3 2.34485
207      128.711 1 2 100 -1201.3 1.93599
208      128.711 1 2 100 -1201.3 1.52713
209      128.711 1 2 100 -1201.3 1.11827
210      128.711 1 2 100 -1201.3 0.709411
211      128.711 1 2 100 -1201.3 0.30055
212      128.711 1 2 100 -1201.3 6.17487
213      128.711 1 2 100 -1201.3 5.76601
214      128.711 1 2 100 -1201.3 5.35715
215      128.711 1 2 100 -1201.3 4.94829
216      128.711 1 2 100 -1201.3 4.53943
217      128.711 1 2 100 -1201.3 4.13057
218      128.711 1 2 100 -1201.3 3.72171
219      128.711 1 2 100 -1201.3 3.31285
220      128.711 1 2 100 -1201.3 2.90399
221      128.711 1 2 100 -1201.3 2.49513
222      128.711 1 2 100 -1201.3 2.08627
223      128.711 1 2 100 -1201.3 1.67741
224      128.711 1 2 100 -1201.3 1.26855
225      128.711 1 2 100 -1201.3 0.859686
226      128.711 1 2 100 -1201.3 0.450825
227      128.711 1 2 100 -1201.3 0.0419641
228      128.711 1 2 100 -1201.3 5.91629
229      128.711 1 2 100 -1201.3 5.50743
230      128.711 1 2 100 -1201.3 5.09857
231      128.711 1 2 100 -1201.3 4.68971
232      128.711 1 2 100 -1201.3 4.28085
233      128.711 1 2 100 -1201.3 3.87199
234      128.711 1 2 100 -1201.3 3.46312
235      128.711 1 2 100 -1201.3 3.05426
236      128.711 1 2 100 -1201.3 2.6454
237      128.711 1 2 100 -1201.3 2.23654
238      128.711 1 2 100 -1201.3 1.82768
239      128.711 1 2 100 -1201.3 1.41882
240      128.711 1 2 100 -1201.3 1.00996
241      128.711 1 2 100 -1051.14 0
242      128.711 1 2 100 -1051.14 2.78384
243      128.711 1 2 100 -1051.14 5.56768
244      128.711 1 2 100 -1051.14 2.06833
245      128.711 1 2 100 -1051.14 4.85217
246      128.711 1 2 100 -1051.14 1.35283
247      128.711 1 2 100 -1051.14 4.13667
248      128.711 1 2 100 -1051.14 0.637321
249      128.711 1 2 100 -1051.14 3.42116
250      128.711 1 2 100 -1051.14 6.205
251      128.711 1 2 100 -1051.14 2.70565
252      128.711 1 2 100 -1051.14 5.48949
253      128.711 1 2 100 -1051.14 1.99015
254      128.711 1 2 100 -1051.14 4.77399
255      128.711 1 2 100 -1051.14 1.27464
256      128.711 1 2 100 -1051.14 4.05848
257      128.711 1 2 100 -1051.14 0.559136
258      128.711 1 2 100 -1051.14 3.34298
259      128.711 1 2 100 -1051.14 6.12681
260      128.711 1 2 100 -1051.14 2.62747
261      128.711 1 2 100 -1051.14 5.41131
262      128.711 1 2 100 -1051.14 1.91196
263      128.711 1 2 100 -1051.14 4.6958
264      128.711 1 2 100 -1051.14 1.19646
265      128.711 1 2 100 -1051.14 3.9803
266      128.711 1 2 100 -1051.14 0.48095
267      128.711 1 2 100 -1051.14 3.26479
268      128.711 1 2 100 -1051.14 6.04863
269      128.711 1 2 100 -1051.14 2.54928
270      128.711 1 2 100 -1051.14 5.33312
271      128.711 1 2 100 -1051.14 1.83378
272      128.711 1 2 100 -1051.14 4.61762
273      128.711 1 2 100 -1051.14 1.11827
274      128.711 1 2 100 -1051.14 3.90211
275      128.711 1 2 100 -1051.14 0.402765
276      128.711 1 2 100 -1051.14 3.1866
277      128.711 1 2 100 -1051.14 5.97044
278      128.711 1 2 100 -1051.14 2.4711
279      128.711 1 2 100 -1051.14 5.25494
280      128.711 1 2 100 -1051.14 1.75559
281      128.711 1 2 100 -1051.14 4.53943
282      128.711 1 2 100 -1051.14 1.04009
283      128.711 1 2 100 -1051.14 3.82393
284      128.711 1 2 100 -1051.14 0.32458
285      128.711 1 2 100 -1051.14 3.10842
286      128.711 1 2 100 -1051.14 5.89226
287      128.711 1 2 100 -1051.14 2.39291
288      128.711 1 2 100 -1051.14 5.17675
289      128.711 1 2 100 -1051.14 1.67741
290      128.711 1 2 100 -1051.14 4.46125
291      128.711 1 2 100 -1051.14 0.961901
292      128.711 1 2 100 -1051.14 3.74574
293      128.711 1 2 100 -1051.14 0.246394
294      128.711 1 2 100 -1051.14 3.03023
295      128.711 1 2 100 -1051.14 5.81407
296      128.711 1 2 100 -1051.14 2.31473
297      128.711 1 2 100 -1051.14 5.09857
298      128.711 1 2 100 -1051.14 1.59922
299      128.711 1 2 100 -1051.14 4.38306
300      128.711 1 2 100 -1051.14 0.883715
301      128.711 1 2 100 -976.057 0
302      128.711 1 2 100 -976.057 1.2386
303      128.711 1 2 100 -976.057 2.47719
304      128.711 1 2 100 -976.057 3.71579
305      128.711 1 2 100 -976.057 4.95439
306      128.711 1 2 100 -976.057 6.19299
307      128.711 1 2 100 -976.057 1.1484
308      128.711 1 2 100 -976.057 2.38699
309      128.711 1 2 100 -976.057 3.62559
310      128.711 1 2 100 -976.057 4.86419
311      128.711 1 2 100 -976.057 6.10278
312      128.711 1 2 100 -976.057 1.0582
313      128.711 1 2 100 -976.057 2.29679
314      128.711 1 2 100 -976.057 3.53539
315      128.711 1 2 100 -976.057 4.77399
316      128.711 1 2 100 -976.057 6.01258
317      128.711 1 2 100 -976.057 0.967996
318      128.711 1 2 100 -976.057 2.20659
319      128.711 1 2 100 -976.057 3.44519
320      128.711 1 2 100 -976.057 4.68379
321      128.711 1 2 100 -976.057 5.92238
322      128.711 1 2 100 -976.057 0.877796
323      128.711 1 2 100 -976.057 2.11639
324      128.711 1 2 100 -976.057 3.35499
325      128.711 1 2 100 -976.057 4.59359
326      128.711 1 2 100 -976.057 5.83218
327      128.711 1 2 100 -976.057 0.787596
328      128.711 1 2 100 -976.057 2.02619
329      128.711 1 2 100 -976.057 3.26479
330      128.711 1 2 100 -976.057 4.50339
331      128.711 1 2 100 -976.057 5.74198
332      128.711 1 2 100 -976.057 0.697396
333      128.711 1 2 100 -976.057 1.93599
334      128.711 1 2 100 -976.057 3.17459
335      128.711 1 2 100 -976.057 4.41319
336      128.711 1 2 100 -976.057 5.65178
337      128.711 1 2 100 -976.057 0.607195
338      128.711 1 2 100 -976.057 1.84579
339      128.711 1 2 100 -976.057 3.08439
340      128.711 1 2 100 -976.057 4.32299
341      128.711 1 2 100 -976.057 5.56158
342      128.711 1 2 100 -976.057 0.516995
343      128.711 1 2 100 -976.057 1.75559
344      128.711 1 2 100 -976.057 2.99419
345      128.711 1 2 100 -976.057 4.23279
346      128.711 1 2 100 -976.057 5.47138
347      128.711 1 2 100 -976.057 0.426795
348      128.711 1 2 100 -976.057 1.66539
349      128.711 1 2 100 -976.057 2.90399
350      128.711 1 2 100 -976.057 4.14259
351      128.711 1 2 100 -976.057 5.38118
352      128.711 1 2 100 -976.057 0.336595
353      128.711 1 2 100 -976.057 1.57519
354      128.711 1 2 100 -976.057 2.81379
355      128.711 1 2 100 -976.057 4.05239
356      128.711 1 2 100 -976.057 5.29098
357      128.711 1 2 100 -976.057 0.246394
358      128.711 1 2 100 -976.057 1.48499
359      128.711 1 2 100 -976.057 2.72359
360      128.711 1 2 100 -976.057 3.96219
361      128.711 1 2 100 -900.976 0
362      128.711 1 2 100 -900.976 5.97654
363      128.711 1 2 100 -900.976 5.66989
364      128.711 1 2 100 -900.976 5.36325
365      128.711 1 2 100 -900.976 5.0566
366      128.711 1 2 100 -900.976 4.74996
367      128.711 1 2 100 -900.976 4.44331
368      128.711 1 2 100 -900.976 4.13667
369      128.711 1 2 100 -900.976 3.83002
370      128.711 1 2 100 -900.976 3.52338
371      128.711 1 2 100 -900.976 3.21673
372      128.711 1 2 100 -900.976 2.91008
373      128.711 1 2 100 -900.976 2.60344
374      128.711 1 2 100 -900.976 2.29679
375      128.711 1 2 100 -900.976 1.99015
376      128.711 1 2 100 -900.976 1.6835
377      128.711 1 2 100 -900.976 1.37686
378      128.711 1 2 100 -900.976 1.07021
379      128.711 1 2 100 -900.976 0.763566
380      128.711 1 2 100 -900.976 0.45692
381      128.711 1 2 100 -900.976 0.150275
382      128.711 1 2 100 -900.976 6.12681
383      128.711 1 2 100 -900.976 5.82017
384      128.711 1 2 100 -900.976 5.51352
385      128.711 1 2 100 -900.976 5.20688
386      128.711 1 2 100 -900.976 4.90023
387      128.711 1 2 100 -900.976 4.59359
388      128.711 1 2 100 -900.976 4.28694
389      128.711 1 2 100 -900.976 3.9803
390      128.711 1 2 100 -900.976 3.67365
391      128.711 1 2 100 -900.976 3.36701
392      128.711 1 2 100 -900.976 3.06036
393      128.711 1 2 100 -900.976 2.75371
394      128.711 1 2 100 -900.976 2.44707
395      128.711 1 2 100 -900.976 2.14042
396      128.711 1 2 100 -900.976 1.83378
397      128.711 1 2 100 -900.976 1.52713
398      128.711 1 2 100 -900.976 1.22049
399      128.711 1 2 100 -900.976 0.913841
400      128.711 1 2 100 -900.976 0.607195
401      128.711 1 2 100 -900.976 0.30055
402      128.711 1 2 100 -900.976 6.27709
403      128.711 1 2 100 -900.976 5.97044
404      128.711 1 2 100 -900.976 5.6638
405      128.711 1 2 100 -900.976 5.35715
406      128.711 1 2 100 -900.976 5.05051
407      128.711 1 2 100 -900.976 4.74386
408      128.711 1 2 100 -900.976 4.43722
409      128.711 1 2 100 -900.976 4.13057
410      128.711 1 2 100 -900.976 3.82393
411      128.711 1 2 100 -900.976 3.51728
412      128.711 1 2 100 -900.976 3.21063
413      128.711 1 2 100 -900.976 2.90399
414      128.711 1 2 100 -900.976 2.59734
415      128.711 1 2 100 -900.976 2.2907
416      128.711 1 2 100 -900.976 1.98405
417      128.711 1 2 100 -900.976 1.67741
418      128.711 1 2 100 -900.976 1.37076
419      128.711 1 2 100 -900.976 1.06412
420      128.711 1 2 100 -900.976 0.75747
421      128.711 1 2 100 -825.895 0
422      128.711 1 2 100 -825.895 4.4313
423      128.711 1 2 100 -825.895 2.57941
424      128.711 1 2 100 -825.895 0.727521
425      128.711 1 2 100 -825.895 5.15882
426      128.711 1 2 100 -825.895 3.30693
427      128.711 1 2 100 -825.895 1.45504
428      128.711 1 2 100 -825.895 5.88634
429      128.711 1 2 100 -825.895 4.03445
430      128.711 1 2 100 -825.895 2.18256
431      128.711 1 2 100 -825.895 0.330675
432      128.711 1 2 100 -825.895 4.76197
433      128.711 1 2 100 -825.895 2.91008
434      128.711 1 2 100 -825.895 1.0582
435      128.711 1 2 100 -825.895 5.48949
436      128.711 1 2 100 -825.895 3.63761
437      128.711 1 2 100 -825.895 1.78572
438      128.711 1 2 100 -825.895 6.21701
439      128.711 1 2 100 -825.895 4.36513
440      128.711 1 2 100 -825.895 2.51324
441      128.711 1 2 100 -825.895 0.661351
442      128.711 1 2 100 -825.895 5.09265
443      128.711 1 2 100 -825.895 3.24076
444      128.711 1 2 100 -825.895 1.38887
445      128.711 1 2 100 -825.895 5.82017
446      128.711 1 2 100 -825.895 3.96828
447      128.711 1 2 100 -825.895 2.11639
448      128.711 1 2 100 -825.895 0.264505
449      128.711 1 2 100 -825.895 4.6958
450      128.711 1 2 100 -825.895 2.84391
451      128.711 1 2 100 -825.895 0.992026
452      128.711 1 2 100 -825.895 5.42332
453      128.711 1 2 100 -825.895 3.57144
454      128.711 1 2 100 -825.895 1.71955
455      128.711 1 2 100 -825.895 6.15084
456      128.711 1 2 100 -825.895 4.29896
457      128.711 1 2 100 -825.895 2.44707
458      128.711 1 2 100 -825.895 0.59518
459      128.711 1 2 100 -825.895 5.02648
460      128.711 1 2 100 -825.895 3.17459
461      128.711 1 2 100 -825.895 1.3227
462      128.711 1 2 100 -825.895 5.754
463      128.711 1 2 100 -825.895 3.90211
464      128.711 1 2 100 -825.895 2.05022
465      128.711 1 2 100 -825.895 0.198335
466      128.711 1 2 100 -825.895 4.62963
467      128.711 1 2 100 -825.895 2.77774
468      128.711 1 2 100 -825.895 0.925856
469      128.711 1 2 100 -825.895 5.35715
470      128.711 1 2 100 -825.895 3.50527
471      128.711 1 2 100 -825.895 1.65338
472      128.711 1 2 100 -825.895 6.08467
473      128.711 1 2 100 -825.895 4.23279
474      128.711 1 2 100 -825.895 2.3809
475      128.711 1 2 100 -825.895 0.52901
476      128.711 1 2 100 -825.895 4.96031
477      128.711 1 2 100 -825.895 3.10842
478      128.711 1 2 100 -825.895 1.25653
479      128.711 1 2 100 -825.895 5.68783
480      128.711 1 2 100 -825.895 3.83594
481      128.711 1 2 100 -750.813 0
